Node,X,Y,Z,Magnitude,Theta,Radius,Alpha
1.0,14.9246674,1.501435400000001,1.0058087108242688e-15,0.0,275.7446808821025,15.00000017536653,
2.0,14.6994257,2.9877898700000007,1.0830295966814864e-15,0.0,281.4893619572127,15.000000140569837,
3.0,14.3265371,4.444133760000001,1.1493720993273748e-15,0.0,287.23404312888215,14.999999671814935,
4.0,13.8097486,5.855839250000001,1.204169960692679e-15,0.0,292.97872338807423,15.000000323901414,
5.0,13.1542492,7.208726410000001,1.2468726450951063e-15,0.0,298.72340402236216,15.000000282331069,
6.0,12.3666239,8.48920631,1.2770512855118586e-15,0.0,304.46808370605595,15.000000348593163,
7.0,11.4547825,9.68441772,1.2944026942979014e-15,0.0,310.21276690707293,14.999999623258537,
8.0,10.427886,10.7823553,1.2987527058594e-15,0.0,315.95744805938625,14.999999741481135,
9.0,9.29624844,11.7719908,1.290057587446833e-15,0.0,321.7021273923138,15.0000000817829,
10.0,8.07123566,12.643384,1.2684046331086916e-15,0.0,327.44680719692434,15.000000135023718,
11.0,6.765151980000001,13.3877821,1.2340113107249806e-15,0.0,333.19148795358353,14.99999969565261,
12.0,5.391116620000001,13.9977093,1.1872231801076618e-15,0.0,338.93617029944227,15.000000135258224,
13.0,3.9629309200000007,14.4670372,1.1285100733272882e-15,0.0,344.6808510322444,14.999999560762523,
14.0,2.4949402800000007,14.7910538,1.0584618660076048e-15,0.0,350.42553205457614,14.99999998384203,
15.0,1.001889470000001,14.9665031,9.77782042418944e-16,0.0,356.17021288359035,14.999999918413549,
16.0,-0.5012246369999991,14.9916239,8.872810537900057e-16,0.0,1.9148934911890478,15.000000443192894,
17.0,-1.999304289999999,14.8661623,7.87867823851499e-16,0.0,7.6595743257273625,14.999999972465123,
18.0,-3.477302309999999,14.5913801,1.5000000000000007,1.5,13.40425540008897,15.000000152593577,
19.0,-4.920372959999999,14.1700363,1.5000000000000007,1.5,19.148936596517558,14.999999960293895,
20.0,-6.314021589999999,13.6063633,1.5000000000000004,1.5,24.893618206200472,14.99999969635243,
21.0,-7.644249439999999,12.906024,1.5000000000000004,1.5000000000000002,30.638296613146224,15.00000016631721,
22.0,-8.8976965,12.0760508,1.5000000000000002,1.5,36.38297972831572,15.00000019767643,
23.0,-10.0617714,11.1247816,1.5,1.5,42.127660804205846,15.000000311785213,
24.0,-11.1247816,10.0617714,1.5,1.5,47.87233919579421,15.000000311785213,
25.0,-12.0760508,8.8976965,1.4999999999999998,1.5,53.61702027168428,15.00000019767643,
26.0,-12.906024,7.644249439999999,1.4999999999999996,1.4999999999999998,59.361703386853776,15.00000016631721,
27.0,-13.6063633,6.314021589999999,-4.465271466720118e-16,0.0,65.10638179379953,14.99999969635243,
28.0,-14.1700363,4.920372959999999,-5.663785301260808e-16,0.0,70.85106340348244,14.999999960293895,
29.0,-14.5913801,3.477302309999999,-6.805409895499094e-16,0.0,76.59574459991103,15.000000152593577,
30.0,-14.8661623,1.999304289999999,-7.87867823851499e-16,0.0,82.3404256742727,14.999999972465123,
31.0,-14.9916239,0.5012246369999991,-8.872810537900057e-16,0.0,88.08510650881095,15.000000443192894,
32.0,-14.9916239,-0.5012246370000009,-9.4866336852559e-16,0.0,91.91489349118905,15.000000443192894,
33.0,-14.8661623,-1.9993042900000009,-1.032711983778506e-15,0.0,97.6595743257273,14.999999972465123,
34.0,-14.5913801,-3.4773023100000007,-1.106387703910829e-15,0.0,103.40425540008897,15.000000152593577,
35.0,-14.1700363,-4.920372960000001,-1.1689504297335994e-15,0.0,109.14893659651756,14.999999960293895,
36.0,-13.6063633,-6.314021590000001,1.499999999999999,1.5,114.89361820620044,14.99999969635243,
37.0,-12.906024,-7.644249440000001,1.4999999999999987,1.5,120.63829661314622,15.00000016631721,
38.0,-12.0760508,-8.8976965,1.4999999999999987,1.5,126.38297972831572,15.00000019767643,
39.0,-11.1247816,-10.0617714,1.4999999999999987,1.5,132.12766080420582,15.000000311785213,
40.0,-10.0617714,-11.1247816,1.4999999999999987,1.5,137.87233919579415,15.000000311785213,
41.0,-8.8976965,-12.0760508,1.4999999999999987,1.5,143.61702027168428,15.00000019767643,
42.0,-7.644249440000001,-12.906024,1.499999999999999,1.5000000000000002,149.36170338685378,15.00000016631721,
43.0,-6.314021590000001,-13.6063633,1.499999999999999,1.5,155.10638179379953,14.99999969635243,
44.0,-4.920372960000001,-14.1700363,-1.1689504297335994e-15,0.0,160.85106340348244,14.999999960293895,
45.0,-3.4773023100000007,-14.5913801,-1.106387703910829e-15,0.0,166.59574459991103,15.000000152593577,
46.0,-1.9993042900000009,-14.8661623,-1.032711983778506e-15,0.0,172.34042567427267,14.999999972465123,
47.0,-0.5012246370000009,-14.9916239,-9.4866336852559e-16,0.0,178.08510650881092,15.000000443192894,
48.0,1.0018894699999992,-14.9665031,-8.550859691654501e-16,0.0,183.82978711640965,14.999999918413549,
49.0,2.494940279999999,-14.7910538,-7.529198032110248e-16,0.0,189.57446794542386,14.99999998384203,
50.0,3.962930919999999,-14.4670372,-6.431910066852806e-16,0.0,195.3191489677556,14.999999560762523,
51.0,5.391116619999999,-13.9977093,-5.27001808856352e-16,0.0,201.06382970055773,15.000000135258224,
52.0,6.765151979999999,-13.3877821,-4.055191389197427e-16,0.0,206.80851204641647,14.999999695652608,
53.0,8.07123566,-12.643384,-2.7996334149039423e-16,0.0,212.55319280307566,15.000000135023718,
54.0,9.29624844,-11.7719908,-1.5159549783437571e-16,0.0,218.29787260768623,15.0000000817829,
55.0,10.427886,-10.7823553,-2.1704984682050132e-17,0.0,224.04255194061375,14.999999741481135,
56.0,11.4547825,-9.68441772,1.0840357805751038e-16,0.0,229.78723309292704,14.999999623258537,
57.0,12.3666239,-8.48920631,2.3742335202755723e-16,0.0,235.53191629394408,15.000000348593163,
58.0,13.1542492,-7.208726409999999,3.6405827270155717e-16,0.0,241.27659597763784,15.000000282331067,
59.0,13.8097486,-5.855839249999999,4.870364813092852e-16,0.0,247.0212766119258,15.000000323901414,
60.0,14.3265371,-4.444133759999999,6.051226809107056e-16,0.0,252.76595687111785,14.999999671814935,
61.0,14.6994257,-2.987789869999999,7.1713086659944785e-16,0.0,258.5106380427874,15.000000140569837,
62.0,14.9246674,-1.5014353999999992,8.219359051506162e-16,0.0,264.2553191178975,15.00000017536653,
63.0,15.0,9.18485099360515e-16,9.18485099360515e-16,0.0,270.0,15.0,
64.0,-13.797884,-2.348047490000001,-9.886531659240478e-16,0.0,99.65776021827418,13.996246993131813,
65.0,13.8343353,-2.6339189999999992,6.85827698545642e-16,0.0,259.2204680528901,14.082839290831487,
66.0,-14.0105152,0.5010418889999991,-8.272166624241373e-16,0.0,87.95186997511064,14.019471428836528,
67.0,-13.8015108,2.383663649999999,-6.991414982700615e-16,0.0,80.20109329158322,14.00583995192177,
68.0,13.8054924,2.418154950000001,9.93411889883647e-16,0.0,279.93507938490296,14.015673147183023,
69.0,-14.0251274,-0.4402714370000008,-8.857502192060948e-16,0.0,91.79801675049364,14.032036114707973,
70.0,-12.5882282,-0.4022706150000008,1.9999999999999991,2.0,91.83032649888477,12.594654058884178,
71.0,-11.5985117,-0.4608528910000007,1.9999999999999993,2.0,92.27538184671994,11.607663806390153,
72.0,-10.6735954,-0.4231906830000007,1.9999999999999993,2.0,92.27049515476381,10.68198151641722,
73.0,-9.51186275,-0.6056985260000005,1.9999999999999993,2.0,93.64357399517246,9.531128143049813,
74.0,-8.45841408,-0.8875685930000006,1.9999999999999993,2.0,95.99030821688959,8.50485430539655,
75.0,-7.82979298,-0.6662024860000004,1.9999999999999996,2.0,94.86333114943679,7.858083981608357,
76.0,-6.47360134,-0.7104225750000004,1.9999999999999996,2.0,96.26266290902717,6.512466087767324,
77.0,-5.52493143,-0.6495922800000004,1.9999999999999996,2.0,96.70574879143953,5.562988175112135,
78.0,-4.51922321,-0.4688991310000003,1.9999999999999998,2.0,95.92361788182009,4.5434837753485215,
79.0,-3.46320367,-0.30696624500000025,-2.3085632593231993e-16,0.0,95.06525996895243,3.4767812608029955,
80.0,-2.49545884,-0.4579978590000002,-1.808470646425329e-16,0.0,100.39989907737979,2.5371395036502684,
81.0,-1.59123135,-0.5520907640000001,-1.3124062832259193e-16,0.0,109.13463654094807,1.6842866207735923,
82.0,-0.235012665,-0.17877057200000002,-2.533691583664403e-17,0.0,127.25969809558475,0.29527930866149327,
83.0,0.54200691,-0.24089540499999998,1.843776203923461e-17,0.0,246.0372069234085,0.5931290640643587,
84.0,1.67844784,-0.3171379269999999,8.33561913801506e-17,0.0,259.3002664701357,1.708146251449952,
85.0,2.93438697,-0.5459665059999997,1.4624857381278179e-16,0.0,259.4601737341225,2.984745603125939,
86.0,3.72172713,-0.5664981009999998,1.9320205654708308e-16,0.0,261.3452265180618,3.7645946566150577,
87.0,4.53895044,-0.6286357049999997,2.39437721193824e-16,0.0,262.1148090787981,4.582276066146282,
88.0,5.60473442,-0.5072604419999996,3.1213025954473127e-16,0.0,264.82849476965987,5.627642585910264,
89.0,6.63966322,-0.6814099549999996,3.6483778947457587e-16,0.0,264.14040962506976,6.6745372275382415,
90.0,7.75628376,-0.6163784859999996,4.3719310700097023e-16,0.0,265.45635191068413,7.780736482084674,
91.0,8.8537178,-0.6855312589999994,5.00157175113707e-16,0.0,265.5724999671645,8.880218014728184,
92.0,9.69973564,-0.2815685569999994,5.766964086015457e-16,0.0,268.3372576912648,9.703821532683774,
93.0,11.3929634,-0.3685884769999993,6.750482731026149e-16,0.0,268.14699653370445,11.398924181654895,
94.0,12.2221136,-0.4091356399999993,7.233362823556115e-16,0.0,268.08273789867303,12.228959596924964,
95.0,13.1072226,-0.4223177129999992,7.767264083676584e-16,0.0,268.1545553017584,13.114024421841844,
96.0,14.0334311,-0.46908310099999917,8.305767679748078e-16,0.0,268.08553740728547,14.041268724516705,
97.0,14.0337229,0.46881255500000085,8.880241812243377e-16,0.0,271.91331948342935,14.041551326178674,
98.0,12.6500101,0.4269101020000008,8.007304234042329e-16,0.0,271.93287335092333,12.657211689992849,
99.0,11.7754669,0.7773584720000006,7.686388706037742e-16,0.0,273.77690565701255,11.801097699239074,
100.0,11.0819283,0.5047162770000007,7.094773597040544e-16,0.0,272.6076818034507,11.093415766417918,
101.0,10.3203754,0.5022387500000006,6.626939888602176e-16,0.0,272.78608822963565,10.332588841085602,
102.0,9.0310564,0.34599098600000056,5.741785533358979e-16,0.0,272.19399947119035,9.037681642012748,
103.0,7.5464673,0.42374509600000043,4.880347549642978e-16,0.0,273.21386628768636,7.5583548882249065,
104.0,6.8924551,0.47903862600000047,4.513738098240348e-16,0.0,273.97577126922897,6.9090820888679545,
105.0,4.6183176,0.6524859070000003,3.227436321891097e-16,0.0,278.04164810158665,4.6641821698239205,
106.0,3.86775661,0.8137876990000003,2.866619126541679e-16,0.0,281.8818937474623,3.9524412219845098,
107.0,2.59978127,0.5069404240000001,1.902318389199371e-16,0.0,281.03384969054446,2.6487452209165214,
108.0,1.70745015,0.5593264700000001,1.3880003660325283e-16,0.0,288.1377594716415,1.7967281694173116,
109.0,0.47911700600000007,0.836483359,8.055728879771698e-17,0.0,330.1969843208572,0.9639800388609336,
110.0,-1.44356811,0.6022863979999998,-5.1513647789100266e-17,0.0,67.35309578437443,1.564173198026608,
111.0,-2.35211825,0.44161912799999986,-1.1698433172655646e-16,0.0,79.36629783933347,2.393217022377733,
112.0,-3.68453526,0.7317186589999998,-1.808078699441909e-16,0.0,78.76766664624165,3.7564893555169334,
113.0,-4.74041224,0.4317829909999997,-2.6382745092502575e-16,0.0,84.79554454300501,4.760036213775976,
114.0,-5.65274191,0.3499050139999997,-3.247051115543443e-16,0.0,86.45790767747008,5.6635611252897045,
115.0,-6.77911997,0.6705512399999995,-3.740419571283056e-16,0.0,84.35100916478211,6.812202766588671,
116.0,-7.92393875,0.2612843219999995,-4.692022609111246e-16,0.0,88.1114106040402,7.928245380326882,
117.0,-8.99308872,0.6385989789999994,-5.115649559912525e-16,0.0,85.93824615792732,9.015733657433048,
118.0,-9.98556137,0.3862684669999994,-5.877871663868426e-16,0.0,87.7847490852098,9.993029530759667,
119.0,-11.0371075,0.43914642899999934,-6.489379551544202e-16,0.0,87.72150701727105,11.045840463842472,
120.0,-12.0266695,0.4604670409999993,-7.0822564098522985e-16,0.0,87.80737819416493,12.035481259927979,
121.0,-13.0247993,0.4886504409999992,-7.676177286904547e-16,0.0,87.85144610408258,13.033962408215315,
122.0,13.9552832,1.4218028800000009,9.415749624042661e-16,0.0,275.81737969912007,14.027524821641862,
123.0,12.9460878,1.777732850000001,9.015739915121101e-16,0.0,277.81885045757554,13.067575269011387,
124.0,11.5436106,1.5174840700000007,7.997613890488027e-16,0.0,277.4889681530148,11.642925044297765,
125.0,10.5926638,1.3343786000000006,7.303207149227383e-16,0.0,277.17984211322704,10.676380127551118,
126.0,9.5624752,1.5628572700000007,6.812301399417808e-16,0.0,279.2821543219515,9.689347490775985,
127.0,8.61643696,1.3638886200000004,6.111186887997725e-16,0.0,278.99467468980305,8.723713547189611,
128.0,7.64350367,1.2813727900000005,5.46491069476228e-16,0.0,279.51668973340804,7.750165455024548,
129.0,7.02291298,1.5903226100000005,5.274085697797782e-16,0.0,282.7593101345752,7.200724458589545,
130.0,5.63790131,1.6122812000000004,4.4394564020528117e-16,0.0,285.9590397995112,5.863905000012633,
131.0,4.71465778,1.8657623500000002,4.029345224624655e-16,0.0,291.59051560453537,5.0704109428321535,
132.0,3.57421803,1.7518634800000001,3.2612843366097007e-16,0.0,296.11127360022203,3.980459794864758,
133.0,2.44184303,1.5339404300000001,2.434465244195994e-16,0.0,302.1366116018545,2.883673113573757,
134.0,1.25610971,1.6318804,1.7683839220903563e-16,0.0,322.4133887511539,2.05933126122546,
135.0,0.31145405800000003,1.33567941,1.0085783646773396e-16,0.0,346.8742961573505,1.3715112527947466,
136.0,-0.3390591739999999,1.78134739,8.831468235861732e-17,0.0,10.77669050136285,1.8133283341230222,
137.0,-1.6672194,1.50680625,-9.822472534432229e-18,0.0,47.893229030637144,2.2472395517112593,
138.0,-3.0181284,1.5837063799999997,-8.783301677097405e-17,0.0,62.31259829185353,3.4084050429694037,
139.0,-3.82532835,1.4979590199999997,-1.4251027002091102e-16,0.0,68.6152027149626,4.10816482275396,
140.0,-4.90651226,1.7240755599999997,-1.9486804590720329e-16,0.0,70.6392819723875,5.200605646856876,
141.0,-5.8114171,1.3582434699999995,-2.72678241601345e-16,0.0,76.84497776437297,5.968031001425013,
142.0,-6.86036682,1.1129263599999994,-3.519292281314496e-16,0.0,80.78543811973248,6.950053092440356,
143.0,-7.49421072,1.1411027899999995,-3.8901566455560837e-16,0.0,81.34238144825508,7.580587701036688,
144.0,-9.05129623,1.4960253199999995,-4.626269168311305e-16,0.0,80.61483112215592,9.174096969254974,
145.0,-10.0277834,1.2964317799999994,-5.346410906831529e-16,0.0,82.63343450638388,10.11124004647845,
146.0,-10.976408,1.2683513199999994,-5.944470269551541e-16,0.0,83.40856316552674,11.049445581268307,
147.0,-11.9510651,1.3197491199999993,-6.509803542815552e-16,0.0,83.6983931605032,12.023713850727601,
148.0,-12.9438696,1.382392529999999,-7.079362943595509e-16,0.0,83.90397422852209,13.017479376930233,
149.0,-13.9356499,1.443319079999999,-7.649346476301415e-16,0.0,84.08694299968829,14.010193007309429,
150.0,-12.7148275,2.725864169999999,-6.116475984442393e-16,0.0,77.89982189223292,13.003736917826584,
151.0,-11.7294769,2.5682854699999993,-5.609611880562831e-16,0.0,77.64943426614502,12.00736101743621,
152.0,-10.7852631,2.4152548299999994,-5.125151918346188e-16,0.0,77.37742142505954,11.05239141679573,
153.0,-9.82426262,2.1945347799999997,-4.671860888810725e-16,0.0,77.40804373131584,10.066385594013322,
154.0,-8.84436131,2.4713268299999998,-3.902358138393858e-16,0.0,74.38836111236014,9.18314669830025,
155.0,-7.66075802,2.6196598999999994,-3.08678233842287e-16,0.0,71.12145036321687,8.096285038995498,
156.0,-6.75260878,2.6878886199999994,-2.488923266686859e-16,0.0,68.29487842677895,7.267906890519346,
157.0,-5.59297085,2.5934476899999996,-1.8366782184311773e-16,0.0,65.12295386220472,6.165005583916049,
158.0,-4.48204613,2.8243436799999997,-1.0150499996656123e-16,0.0,57.78308208912756,5.297702778960321,
159.0,-3.50288224,2.40165734,1.5,1.5,55.564560467184265,4.247133382186542,
160.0,-2.82979131,2.40713477,1.5,1.5,49.61416892653756,3.715106547475384,
161.0,-1.8178234099999997,2.61451912,1.5,1.5,34.81012493962265,3.18436684111451,
162.0,-0.4660015399999998,2.47261453,1.2286960876655e-16,0.0,10.673063994149231,2.5161438848463122,
163.0,0.5061066150000001,2.36298943,1.75681464397779e-16,0.0,347.91099843758604,2.4165808391275645,
164.0,1.3838537900000003,2.63114285,2.458476391881689e-16,0.0,332.2578020417301,2.972871340842635,
165.0,2.35719085,2.67141533,3.079133231254799e-16,0.0,318.5756147367135,3.562696811220782,
166.0,3.37246966,2.65158081,3.6886670629938044e-16,0.0,308.17595343845477,4.290038741034954,
167.0,4.36776114,2.5157663800000005,4.214944972105359e-16,0.0,299.9413117706884,5.040477939127639,
168.0,5.37166786,2.5502395600000005,4.8507692825223335e-16,0.0,295.39638021835094,5.946304517222942,
169.0,6.55763531,2.8466405900000002,5.758458189616797e-16,0.0,293.465452316259,7.148842109572315,
170.0,7.73496389,2.5777990800000006,6.314746080787927e-16,0.0,288.43146732311527,8.153202712827198,
171.0,8.59487152,2.5747356400000005,6.839411828113678e-16,0.0,286.67645498861157,8.972239411718421,
172.0,9.71556282,2.5130584200000006,7.487870929775669e-16,0.0,284.5024488882277,10.03531880568322,
173.0,10.6796265,2.6068675500000005,8.135631205111426e-16,0.0,283.7174961175972,10.993187918103885,
174.0,11.8147297,2.374063970000001,8.688130375863862e-16,0.0,281.3617664639369,12.050892814132663,
175.0,12.6721611,2.6763296100000007,9.398240009872194e-16,0.0,281.9254807381611,12.95169514487258,
176.0,14.202879,3.434854980000001,1.0799997231409752e-15,0.0,283.5954911862922,14.612323587378969,
177.0,12.8027344,3.855644940000001,1.0200315468856699e-15,0.0,286.760091128777,13.370714491764867,
178.0,11.902729,3.8452262900000007,9.642841519507063e-16,0.0,287.90326728353534,12.508426074800465,
179.0,10.9418821,3.794854640000001,9.023648739259101e-16,0.0,289.12752713159523,11.581265286186564,
180.0,9.5793972,3.3776722000000006,7.933916783520058e-16,0.0,289.4225266102529,10.157436694659765,
181.0,8.95586967,3.5911440800000003,7.682830113897664e-16,0.0,291.849905428435,9.64903712032164,
182.0,7.80011845,3.6388819200000007,7.004367594282945e-16,0.0,295.0098155121527,8.607166169055485,
183.0,6.93937731,4.00909996,6.704008822121526e-16,0.0,300.0163986586133,8.014227345154044,
184.0,5.72034454,3.7137639500000006,5.776725382543685e-16,0.0,302.99245250008505,6.8201454773800405,
185.0,4.57182789,3.7608234900000004,5.102277420463888e-16,0.0,309.440997185996,5.91991584219891,
186.0,3.70886469,3.4729168400000003,4.3975728814450406e-16,0.0,313.11830042776955,5.081026339853434,
187.0,3.0616569500000006,3.63589072,4.101065158101157e-16,0.0,319.9004364111513,4.753256210984784,
188.0,1.4672727600000002,3.6383779,3.126309369166785e-16,0.0,338.0369315418803,3.9230961109111804,
189.0,0.6018425230000002,3.36376905,2.428236759768075e-16,0.0,349.85602511185937,3.4171854857804997,
190.0,-0.27231249199999985,3.10018539,1.731572746465625e-16,0.0,5.019833659703295,3.1121220325798125,
191.0,-1.7996706999999998,3.30415392,1.5,1.5,28.575766712124675,3.7624789375476717,
192.0,-2.8130488399999996,3.66733146,1.5,1.5,37.49022857132786,4.621965362671066,
193.0,-3.4944360299999997,3.68236113,1.5,1.5,43.50004744957823,5.076501419235203,
194.0,-4.17857933,3.7160577799999994,1.5,1.5,48.352943828606044,5.591923697744969,
195.0,-5.58574247,3.7320699699999995,1.4999999999999996,1.4999999999999998,56.25144543994554,6.717802110968846,
196.0,-7.88068247,3.8239030799999996,-2.484060947405226e-16,0.0,64.11618540048539,8.759417272752724,
197.0,-9.10936451,3.7058093499999996,-3.308723265355082e-16,0.0,67.86286135833302,9.834304485554378,
198.0,-9.85402203,3.8146038099999995,-3.6980770959176025e-16,0.0,68.8380136888519,10.566596064721686,
199.0,-11.1608429,3.7041714199999993,-4.565894430137678e-16,0.0,71.63951396978871,11.759477035447844,
200.0,-11.9151115,3.594295499999999,-5.095030340347042e-16,0.0,73.21361297248188,12.445434592602723,
201.0,-13.0364408,3.676743509999999,-5.731161663593328e-16,0.0,74.24964599347715,13.545007625329404,
202.0,-13.9955435,3.858130689999999,-6.207375074700938e-16,0.0,74.5881447774255,14.517589685671384,
203.0,12.9848671,4.414196970000001,1.0653854060742611e-15,0.0,288.7754312287426,13.714660349225555,
